# lambda [nm], Cextmultiple_sphere_d=2
500.000 289.07584094
500.500 291.73281014
501.000 294.41765910
501.500 297.13035024
502.000 299.87080753
502.500 302.63891126
503.000 305.43449564
503.500 308.25734467
504.000 311.10718702
504.500 313.98369242
505.000 316.88646615
505.500 319.81504402
506.000 322.76888692
506.500 325.74737456
507.000 328.74979943
507.500 331.77536001
508.000 334.82315336
508.500 337.89216804
509.000 340.98127533
509.500 344.08922160
510.000 347.21461816
510.500 350.35593283
511.000 353.51147898
511.500 356.67940556
512.000 359.85765959
512.500 363.04410467
513.000 366.23624844
513.500 369.43149018
514.000 372.62697721
514.500 375.81961737
515.000 379.00606420
515.500 382.18270291
516.000 385.34563436
516.500 388.49066023
517.000 391.61326687
517.500 394.70860954
518.000 397.77149596
518.500 400.79636427
519.000 403.77729952
519.500 406.70794969
520.000 409.58159332
520.500 412.39104468
521.000 414.71123547
521.500 413.74806380
522.000 412.66382563
522.500 411.45815789
523.000 410.13089178
523.500 408.68204671
524.000 407.11189173
524.500 405.42083161
525.000 403.60952422
525.500 401.67882460
526.000 399.62980614
526.500 397.46373710
527.000 395.18209848
527.500 392.78655558
528.000 390.27899287
528.500 387.66147016
529.000 384.93624048
529.500 382.10576868
530.000 379.17264512
530.500 376.13965817
531.000 373.00974658
531.500 369.78599333
532.000 366.47164469
532.500 363.07004097
533.000 359.58466533
533.500 356.01911189
534.000 352.37705182
534.500 348.66225641
535.000 344.87856225
535.500 341.02988499
536.000 337.12017747
536.500 333.15342322
537.000 329.13364314
537.500 325.06487586
538.000 320.95115698
538.500 316.79652045
539.000 312.60497433
539.500 308.38051874
540.000 304.12710648
540.500 299.84862502
541.000 295.54891759
541.500 291.23180475
542.000 286.90096203
542.500 282.56004592
543.000 278.21259404
543.500 273.86207553
544.000 269.51185331
544.500 265.16517774
545.000 260.82522149
545.500 256.49502311
546.000 252.17749586
546.500 247.87552620
547.000 243.59175528
547.500 239.32879900
548.000 235.08909665
548.500 230.87506132
549.000 227.10097251
549.500 223.47120744
550.000 219.88084217
550.500 216.35048609
551.000 212.85990446
