# lambda [nm], Cextmultiple_sphere_d=1
380.000 2750.27837437
380.500 3161.14041344
381.000 3657.00262399
381.500 4252.86590650
382.000 4834.90971318
382.500 5471.58471520
383.000 6136.73535911
383.500 6783.39842627
384.000 7343.38733082
384.500 7737.22157739
385.000 7896.29240083
385.500 7789.14569540
386.000 7435.52750433
386.500 6897.66082465
387.000 6255.33374230
387.500 5581.34417806
388.000 4928.31243806
388.500 4327.04256610
389.000 3791.13255136
389.500 3322.98778658
390.000 2918.81066130
