# lambda [nm], Cextmultiple_sphere_d=2
380.000 2380.77742992
380.500 2678.69823669
381.000 3028.45410145
381.500 3436.86587789
382.000 3832.86326821
382.500 4267.34732516
383.000 4732.96036301
383.500 5215.02099975
384.000 5689.65445026
384.500 6123.46362013
385.000 6476.28101353
385.500 6707.95501849
386.000 6788.12342877
386.500 6705.30417507
387.000 6470.70233893
387.500 6114.55644983
388.000 5677.09751040
388.500 5198.71432553
389.000 4713.05917849
389.500 4244.21177439
390.000 3806.97322238
390.500 3408.74116573
391.000 3051.74053846
391.500 2734.96779999
392.000 2455.63650837
392.500 2210.14318870
393.000 1994.66673696
393.500 1805.50505276
394.000 1639.24679939
394.500 1492.84269394
395.000 1363.61717660
395.500 1249.24997686
396.000 1147.74405464
396.500 1057.38733788
397.000 976.71495819
397.500 904.54921647
398.000 839.95235742
398.500 781.74343895
399.000 729.14512067
399.500 681.48884251
400.000 638.19849194
