# lambda [nm], Cextmultiple_sphere_d=1
380.000 1505.07044580
380.500 1656.07090227
381.000 1831.58442882
381.500 2036.35852148
382.000 2249.99317171
382.500 2493.98971405
383.000 2772.86555106
383.500 3091.41575389
384.000 3454.37552574
384.500 3865.78901764
385.000 4327.93667764
385.500 4839.66084253
386.000 5393.99629467
386.500 5975.25587267
387.000 6556.24788193
387.500 7097.09870058
388.000 7547.81480357
388.500 7856.28345852
389.000 7980.94036278
389.500 7903.51870461
390.000 7635.32349795
390.500 7213.31565089
391.000 6688.35381585
391.500 6111.93880640
392.000 5526.85685364
392.500 4963.38930400
393.000 4439.78900572
393.500 3964.84574416
394.000 3540.86353638
394.500 3166.19449262
395.000 2837.08268671
395.500 2548.86988306
396.000 2296.71970798
396.500 2076.01407146
397.000 1882.54546242
397.500 1712.75913279
398.000 1563.70676523
398.500 1431.96886704
399.000 1315.18206901
399.500 1211.32879606
400.000 1118.68905508
