# lambda [nm], Cextmultiple_sphere_d=2-x
380.000 3261.79025200
380.500 3750.31470681
381.000 4326.00331384
381.500 4989.14008699
382.000 5584.35702053
382.500 6180.83152391
383.000 6729.26578265
383.500 7167.08951940
384.000 7431.11064209
384.500 7476.88266442
385.000 7295.64680824
385.500 6918.03986692
386.000 6401.91852977
386.500 5812.54708281
387.000 5206.22176015
387.500 4622.67665998
388.000 4085.03917768
388.500 3603.56140814
389.000 3180.04869647
389.500 2811.50950426
390.000 2492.66544973
390.500 2217.48014740
391.000 1980.00304145
391.500 1774.77269185
392.000 1596.97569205
392.500 1442.46780874
393.000 1307.72983788
393.500 1189.79684991
394.000 1086.18149863
394.500 994.80003174
395.000 913.90494184
395.500 842.03082143
396.000 777.94484016
396.500 720.60724989
397.000 669.13843161
397.500 622.83941455
398.000 581.16215173
398.500 543.39303992
399.000 509.07198153
399.500 477.80317407
400.000 449.24386883
