# lambda [nm], Cextmultiple_sphere_d=1
380.000 3573.68220815
380.500 4127.00082302
381.000 4774.25397847
381.500 5506.84359958
382.000 6133.96874769
382.500 6725.92647917
383.000 7216.96334345
383.500 7536.16202753
384.000 7628.54096318
384.500 7476.25192797
385.000 7106.34761446
385.500 6579.41938724
386.000 5967.23952346
386.500 5332.98036941
387.000 4721.50687336
387.500 4158.86160857
388.000 3656.45574290
388.500 3216.17863080
389.000 2834.59906303
389.500 2505.81599957
390.000 2223.17133603
