# lambda [nm], diel_real, diel_imag
380.000 -3.387652048823318385e+00 1.922074608344178093e-01
380.500 -3.415844613291489473e+00 1.902806440428994050e-01
381.000 -3.444152196559086221e+00 1.883313919605790476e-01
381.500 -3.472486976118106750e+00 1.864131694950253992e-01
382.000 -3.496687582219679680e+00 1.870611553000697258e-01
382.500 -3.520972165441959234e+00 1.877091411051139969e-01
383.000 -3.545340725784946745e+00 1.883571269101582679e-01
383.500 -3.569793263248642212e+00 1.890051127152025667e-01
384.000 -3.594329777833046080e+00 1.896530985202468655e-01
384.500 -3.618950269538157016e+00 1.903010843252911366e-01
385.000 -3.643654738363975465e+00 1.909490701303354354e-01
385.500 -3.668443184310501870e+00 1.915970559353797065e-01
386.000 -3.693315607377735788e+00 1.922450417404240053e-01
386.500 -3.718272007565678994e+00 1.928930275454683041e-01
387.000 -3.743312384874328380e+00 1.935410133505125752e-01
387.500 -3.768436739303686167e+00 1.941889991555568740e-01
388.000 -3.793645070853751466e+00 1.948369849606011450e-01
388.500 -3.818937379524524278e+00 1.954849707656454161e-01
389.000 -3.844313665316005935e+00 1.961329565706897426e-01
389.500 -3.869773928228194659e+00 1.967809423757340137e-01
390.000 -3.895318168261090896e+00 1.974289281807782848e-01
