# lambda [nm], Cext, d=infty
380.000 3887.15684191
380.500 4504.13480011
381.000 5217.80052917
381.500 6006.43887795
382.000 6642.47434442
382.500 7196.71820867
383.000 7591.67146051
383.500 7759.32132085
384.000 7666.83219625
384.500 7331.08322615
385.000 6811.24546234
385.500 6184.98256598
386.000 5524.19775449
386.500 4881.52166113
387.000 4288.20209900
387.500 3758.37908480
388.000 3294.93749518
388.500 2894.45275205
389.000 2550.56967816
389.500 2256.02279555
390.000 2003.71007466
390.500 1787.18906621
391.000 1600.84760016
391.500 1439.90987632
392.000 1300.36533431
392.500 1178.87014487
393.000 1072.64602971
393.500 979.38606006
394.000 897.17298386
394.500 824.41030464
395.000 759.76474883
395.500 702.11923571
396.000 650.53450897
396.500 604.21779682
397.000 562.49747901
397.500 524.84112397
398.000 490.83323962
398.500 459.91746448
399.000 431.73895485
399.500 405.99115612
400.000 382.40839429
