# lambda [nm], diel_prot_real, diel_prot_imag
500.500 2.721890920221657684e+00 2.084319350934497606e-01
501.500 2.721731783993228682e+00 2.079708699547936634e-01
502.500 2.721573571969807315e+00 2.075119280811164313e-01
503.500 2.721416276148212354e+00 2.070550943457010185e-01
504.500 2.721259888612168165e+00 2.066003537688223257e-01
505.500 2.721104401531138528e+00 2.061476915159319301e-01
506.500 2.720949807159179112e+00 2.056970928958686828e-01
507.500 2.720796097833809490e+00 2.052485433590977570e-01
508.500 2.720643265974904246e+00 2.048020284959744530e-01
509.500 2.720491304083597850e+00 2.043575340350348157e-01
510.500 2.720340204741212187e+00 2.039150458413117040e-01
511.500 2.720189960608196955e+00 2.034745499146748127e-01
512.500 2.720040564423088725e+00 2.030360323881970908e-01
513.500 2.719892009001487754e+00 2.025994795265428361e-01
514.500 2.719744287235047686e+00 2.021648777243817419e-01
515.500 2.719597392090485677e+00 2.017322135048249254e-01
516.500 2.719451316608603175e+00 2.013014735178837722e-01
517.500 2.719306053903324916e+00 2.008726445389521498e-01
518.500 2.719161597160751676e+00 2.004457134673098551e-01
519.500 2.719017939638231685e+00 2.000206673246480715e-01
520.500 2.718875074663438696e+00 1.995974932536162261e-01
521.500 2.718732995633472704e+00 1.991761785163898846e-01
522.500 2.718591696013968217e+00 1.987567104932587148e-01
523.500 2.718451169338218509e+00 1.983390766812356543e-01
524.500 2.718311409206316309e+00 1.979232646926850081e-01
525.500 2.718172409284303814e+00 1.975092622539708909e-01
526.500 2.718034163303332917e+00 1.970970572041242930e-01
527.500 2.717896665058847638e+00 1.966866374935298811e-01
528.500 2.717759908409770997e+00 1.962779911826304513e-01
529.500 2.717623887277704320e+00 1.958711064406503666e-01
530.500 2.717488595646146088e+00 1.954659715443368417e-01
531.500 2.717354027559712115e+00 1.950625748767187417e-01
532.500 2.717220177123374381e+00 1.946609049258829771e-01
533.500 2.717087038501711405e+00 1.942609502837679136e-01
534.500 2.716954605918165733e+00 1.938626996449737683e-01
535.500 2.716822873654315629e+00 1.934661418055891868e-01
536.500 2.716691836049155206e+00 1.930712656620345302e-01
537.500 2.716561487498388772e+00 1.926780602099210649e-01
538.500 2.716431822453732270e+00 1.922865145429257794e-01
539.500 2.716302835422225836e+00 1.918966178516818000e-01
540.500 2.716174520965557893e+00 1.915083594226838493e-01
541.500 2.716046873699396791e+00 1.911217286372092483e-01
542.500 2.715919888292734896e+00 1.907367149702530185e-01
543.500 2.715793559467238882e+00 1.903533079894779434e-01
544.500 2.715667881996613353e+00 1.899714973541786756e-01
545.500 2.715542850705971567e+00 1.895912728142601922e-01
546.500 2.715418460471212825e+00 1.892126242092296851e-01
547.500 2.715294706218415399e+00 1.888355414672023835e-01
548.500 2.715171582923231242e+00 1.884600146039207003e-01
549.500 2.715049085610294011e+00 1.880860337217865330e-01
550.500 2.714927209352632875e+00 1.877135890089063341e-01
