# lambda [nm], Cext, d=infty
380.000 3887.15684191
380.500 4504.13480011
381.000 5217.80052917
381.500 6006.43887795
382.000 6642.47434442
382.500 7196.71820867
383.000 7591.67146051
383.500 7759.32132085
384.000 7666.83219625
384.500 7331.08322615
385.000 6811.24546234
385.500 6184.98256598
386.000 5524.19775449
386.500 4881.52166113
387.000 4288.20209900
387.500 3758.37908480
388.000 3294.93749518
388.500 2894.45275205
389.000 2550.56967816
389.500 2256.02279555
390.000 2003.71007466
