# lambda [nm], diel_real, diel_imag
380.000 -3.387652048823318385e+00 1.922074608344178093e-01
380.500 -3.415844613291489473e+00 1.902806440428994050e-01
381.000 -3.444152196559086221e+00 1.883313919605790476e-01
381.500 -3.472486976118106750e+00 1.864131694950253992e-01
382.000 -3.496687582219679680e+00 1.870611553000697258e-01
382.500 -3.520972165441959234e+00 1.877091411051139969e-01
383.000 -3.545340725784946745e+00 1.883571269101582679e-01
383.500 -3.569793263248642212e+00 1.890051127152025667e-01
384.000 -3.594329777833046080e+00 1.896530985202468655e-01
384.500 -3.618950269538157016e+00 1.903010843252911366e-01
385.000 -3.643654738363975465e+00 1.909490701303354354e-01
385.500 -3.668443184310501870e+00 1.915970559353797065e-01
386.000 -3.693315607377735788e+00 1.922450417404240053e-01
386.500 -3.718272007565678994e+00 1.928930275454683041e-01
387.000 -3.743312384874328380e+00 1.935410133505125752e-01
387.500 -3.768436739303686167e+00 1.941889991555568740e-01
388.000 -3.793645070853751466e+00 1.948369849606011450e-01
388.500 -3.818937379524524278e+00 1.954849707656454161e-01
389.000 -3.844313665316005935e+00 1.961329565706897426e-01
389.500 -3.869773928228194659e+00 1.967809423757340137e-01
390.000 -3.895318168261090896e+00 1.974289281807782848e-01
390.500 -3.920946385414695090e+00 1.980769139858225836e-01
391.000 -3.946658579689008128e+00 1.987248997908668824e-01
391.500 -3.972454751084027791e+00 1.993728855959111534e-01
392.000 -3.998334899599754966e+00 2.000208714009554523e-01
392.500 -4.024299025236190097e+00 2.006688572059997233e-01
393.000 -4.050347127993332741e+00 2.013168430110440221e-01
393.500 -4.076479207871184229e+00 2.019648288160882932e-01
394.000 -4.102695264869742786e+00 2.026128146211325642e-01
394.500 -4.128995298989011076e+00 2.032608004261768908e-01
395.000 -4.155379310228984657e+00 2.039087862312211896e-01
395.500 -4.181847298589667083e+00 2.045567720362654607e-01
396.000 -4.208399264071056578e+00 2.052047578413097595e-01
396.500 -4.235035206673154029e+00 2.058527436463540305e-01
397.000 -4.261755126395959437e+00 2.065007294513983016e-01
397.500 -4.288529114388348162e+00 2.071479933378150839e-01
398.000 -4.315286168766465202e+00 2.077928335811046745e-01
398.500 -4.342126386932455340e+00 2.084376738243942373e-01
399.000 -4.369049768886318574e+00 2.090825140676838001e-01
399.500 -4.396056314628053130e+00 2.097273543109733351e-01
400.000 -4.423146024157662559e+00 2.103721945542628979e-01
