# lambda [nm], diel_prot_real, diel_prot_imag
5170.0 2.71938e+00 2.01087e-01
5175.0 2.71931e+00 2.00873e-01
5180.0 2.71923e+00 2.00659e-01
5185.0 2.71916e+00 2.00446e-01
5190.0 2.71909e+00 2.00233e-01
5195.0 2.71902e+00 2.00021e-01
5200.0 2.71895e+00 1.99809e-01
5205.0 2.71888e+00 1.99597e-01
5210.0 2.71880e+00 1.99387e-01
5215.0 2.71873e+00 1.99176e-01
5220.0 2.71866e+00 1.98966e-01
5225.0 2.71859e+00 1.98757e-01
5230.0 2.71852e+00 1.98548e-01
5235.0 2.71845e+00 1.98339e-01
5240.0 2.71838e+00 1.98131e-01
5245.0 2.71831e+00 1.97923e-01
5250.0 2.71824e+00 1.97716e-01
5255.0 2.71817e+00 1.97509e-01
5260.0 2.71810e+00 1.97303e-01
5265.0 2.71803e+00 1.97097e-01
5270.0 2.71797e+00 1.96892e-01
