# lambda [nm], Cext, Cext_analytical, error
460.00000000 213.24616653 213.82505203 0.00270729
461.00000000 213.38512084 213.96341920 0.00270279
462.00000000 213.52394643 214.10165384 0.00269829
463.00000000 213.66262760 214.23972104 0.00269368
464.00000000 213.80111010 214.37758543 0.00268907
465.00000000 213.93936455 214.51521112 0.00268441
466.00000000 214.07734960 214.65256176 0.00267974
467.00000000 214.21504420 214.78960049 0.00267497
468.00000000 214.35239553 214.92628997 0.00267019
469.00000000 214.48937114 215.06259232 0.00266537
470.00000000 214.62593285 215.19846916 0.00266050
471.00000000 214.76204185 215.33388161 0.00265560
472.00000000 215.81330021 216.38714785 0.00265195
473.00000000 217.55692503 218.13481029 0.00264921
474.00000000 219.32871743 219.91069523 0.00264643
475.00000000 221.12936788 221.71549989 0.00264362
476.00000000 222.95961396 223.54994518 0.00264071
477.00000000 224.82018260 225.41477671 0.00263778
478.00000000 226.71185018 227.31076589 0.00263479
479.00000000 228.63541381 229.23871097 0.00263174
480.00000000 230.59169886 231.19943827 0.00262864
481.00000000 232.58155492 233.19380339 0.00262549
482.00000000 234.60588192 235.22269247 0.00262224
483.00000000 236.66557763 237.28702361 0.00261896
484.00000000 238.76161071 239.38774826 0.00261558
485.00000000 240.89494836 241.52585274 0.00261216
486.00000000 243.06663075 243.70235984 0.00260863
487.00000000 245.27770373 245.91833050 0.00260504
488.00000000 247.52927173 248.17486555 0.00260137
489.00000000 249.82247629 250.47310762 0.00259761
490.00000000 252.15850270 252.81424311 0.00259376
491.00000000 254.53857932 255.19950425 0.00258984
492.00000000 256.96399373 257.63017129 0.00258579
493.00000000 259.43606715 260.10757489 0.00258165
494.00000000 261.95618477 262.63309853 0.00257741
495.00000000 264.52578453 265.20818112 0.00257306
496.00000000 267.27954912 267.96821227 0.00256994
497.00000000 272.08640598 272.79224514 0.00258746
498.00000000 276.99722574 277.72105100 0.00260630
499.00000000 282.01275445 282.75542192 0.00262654
500.00000000 287.13331607 287.89574729 0.00264829
501.00000000 292.35875939 293.14193480 0.00267166
502.00000000 297.68835398 298.49331960 0.00269676
503.00000000 303.12068845 303.94855999 0.00272372
504.00000000 308.65355085 309.50551801 0.00275267
505.00000000 314.28379257 315.16112315 0.00278375
506.00000000 320.00717299 320.91121710 0.00281712
507.00000000 325.81818360 326.75037751 0.00285292
508.00000000 331.70984914 332.67171869 0.00289135
509.00000000 337.67350348 338.66666702 0.00293257
510.00000000 343.69853846 344.72470905 0.00297678
511.00000000 349.77213460 350.83311044 0.00302416
512.00000000 355.87891158 356.97660422 0.00307497
513.00000000 362.00064289 363.13704755 0.00312941
514.00000000 368.11584807 369.29304690 0.00318771
515.00000000 374.19939951 375.41955295 0.00325011
516.00000000 380.22209232 381.48742818 0.00331685
517.00000000 386.15020240 387.46299244 0.00338817
518.00000000 391.94501055 393.30755458 0.00346432
519.00000000 397.56235223 398.97694235 0.00354554
520.00000000 402.95216536 404.42104691 0.00363206
521.00000000 407.64975568 409.17322503 0.00372329
522.00000000 405.31072633 406.85853852 0.00380430
523.00000000 402.49522661 404.06506120 0.00388510
524.00000000 399.20474397 400.79406882 0.00396544
525.00000000 395.44398799 397.05006089 0.00404501
526.00000000 391.22088148 392.84079111 0.00412358
527.00000000 386.54656593 388.17724360 0.00420086
528.00000000 381.43530641 383.07355401 0.00427659
529.00000000 375.90435327 377.54687637 0.00435051
530.00000000 369.97375991 371.61719807 0.00442240
531.00000000 363.66614186 365.30710734 0.00449202
532.00000000 357.00641106 358.64151872 0.00455917
533.00000000 350.02147109 351.64736356 0.00462364
534.00000000 342.73985758 344.35325324 0.00468529
535.00000000 335.19140784 336.78912391 0.00474397
536.00000000 327.40688984 328.98587115 0.00479954
537.00000000 319.41764169 320.97498355 0.00485191
538.00000000 311.25520372 312.78818325 0.00490101
539.00000000 302.95099503 304.45708112 0.00494679
540.00000000 294.53597949 296.01285321 0.00498922
541.00000000 286.04038118 287.48594399 0.00502829
542.00000000 277.49341547 278.90580060 0.00506402
543.00000000 268.92307286 270.30064135 0.00509643
544.00000000 260.35590732 261.69726017 0.00512559
545.00000000 251.81690283 253.12086772 0.00515155
546.00000000 243.32933679 244.59496881 0.00517440
547.00000000 234.91470220 236.14127474 0.00519423
548.00000000 226.59265466 227.77964866 0.00521115
549.00000000 218.79355484 219.94197799 0.00522148
550.00000000 211.76622771 212.87830823 0.00522402
551.00000000 204.93859916 206.01504904 0.00522510
552.00000000 198.27197830 199.31332438 0.00522467
553.00000000 191.76856010 192.77539333 0.00522283
554.00000000 185.42979744 186.40275883 0.00521967
555.00000000 179.25646066 180.19623436 0.00521528
556.00000000 173.24870120 174.15600855 0.00520974
557.00000000 167.40611425 168.28170717 0.00520314
558.00000000 161.72779827 162.57245223 0.00519555
559.00000000 156.21241258 157.02691783 0.00518704
560.00000000 150.85821759 151.64338280 0.00517771
