# lambda [nm], Cext, Cext_analytical, error
460.00000000 211.58247165 213.82505203 0.01048792
461.00000000 211.72297075 213.96341920 0.01047118
462.00000000 211.86337526 214.10165384 0.01045428
463.00000000 212.00365094 214.23972104 0.01043723
464.00000000 212.14376310 214.37758543 0.01042004
465.00000000 212.28367654 214.51521112 0.01040269
466.00000000 212.42335557 214.65256176 0.01038518
467.00000000 212.56276405 214.78960049 0.01036752
468.00000000 212.70186530 214.92628997 0.01034971
469.00000000 212.84062214 215.06259232 0.01033174
470.00000000 212.97899693 215.19846916 0.01031361
471.00000000 213.11695143 215.33388161 0.01029532
472.00000000 214.16229837 216.38714785 0.01028180
473.00000000 215.89418666 218.13481029 0.01027174
474.00000000 217.65408050 219.91069523 0.01026151
475.00000000 219.44267315 221.71549989 0.01025110
476.00000000 221.26068159 223.54994518 0.01024050
477.00000000 223.10884736 225.41477671 0.01022972
478.00000000 224.98793773 227.31076589 0.01021873
479.00000000 226.89874680 229.23871097 0.01020754
480.00000000 228.84209662 231.19943827 0.01019614
481.00000000 230.81883853 233.19380339 0.01018451
482.00000000 232.82985428 235.22269247 0.01017265
483.00000000 234.87605755 237.28702361 0.01016055
484.00000000 236.95839535 239.38774826 0.01014819
485.00000000 239.07784948 241.52585274 0.01013557
486.00000000 241.23543818 243.70235984 0.01012268
487.00000000 243.43221779 245.91833050 0.01010951
488.00000000 245.66928453 248.17486555 0.01009603
489.00000000 247.94777642 250.47310762 0.01008224
490.00000000 250.26887517 252.81424311 0.01006814
491.00000000 252.63380836 255.19950425 0.01005369
492.00000000 255.04385162 257.63017129 0.01003889
493.00000000 257.50033095 260.10757489 0.01002371
494.00000000 260.00462528 262.63309853 0.01000816
495.00000000 262.55816894 265.20818112 0.00999220
496.00000000 265.29365527 267.96821227 0.00998087
497.00000000 270.05154159 272.79224514 0.01004685
498.00000000 274.91113561 277.72105100 0.01011776
499.00000000 279.87302790 282.75542192 0.01019395
500.00000000 284.93739259 287.89574729 0.01027578
501.00000000 290.10390784 293.14193480 0.01036367
502.00000000 295.37166441 298.49331960 0.01045804
503.00000000 300.73906115 303.94855999 0.01055935
504.00000000 306.20368541 309.50551801 0.01066809
505.00000000 311.76217688 315.16112315 0.01078479
506.00000000 317.41007287 320.91121710 0.01091001
507.00000000 323.14163308 326.75037751 0.01104435
508.00000000 328.94964181 332.67171869 0.01118844
509.00000000 334.82518583 338.66666702 0.01134296
510.00000000 340.75740576 344.72470905 0.01150861
511.00000000 346.73321951 350.83311044 0.01168616
512.00000000 352.73701663 356.97660422 0.01187637
513.00000000 358.75032277 363.13704755 0.01208008
514.00000000 364.75143498 369.29304690 0.01229812
515.00000000 370.71502904 375.41955295 0.01253138
516.00000000 376.61172431 381.48742818 0.01278077
517.00000000 382.40772152 387.46299244 0.01304711
518.00000000 388.06424895 393.30755458 0.01333131
519.00000000 393.53719159 398.97694235 0.01363425
520.00000000 398.77665043 404.42104691 0.01395673
521.00000000 403.32347412 409.17322503 0.01429651
522.00000000 400.91953142 406.85853852 0.01459723
523.00000000 398.04570144 404.06506120 0.01489701
524.00000000 394.70406272 400.79406882 0.01519485
525.00000000 390.89985167 397.05006089 0.01548976
526.00000000 386.64147861 392.84079111 0.01578073
527.00000000 381.94049083 388.17724360 0.01606677
528.00000000 376.81148237 383.07355401 0.01634692
529.00000000 371.27195128 377.54687637 0.01662025
530.00000000 365.34210793 371.61719807 0.01688590
531.00000000 359.04463803 365.30710734 0.01714303
532.00000000 352.40442674 358.64151872 0.01739088
533.00000000 345.44825048 351.64736356 0.01762878
534.00000000 338.20444430 344.35325324 0.01785611
535.00000000 330.70255318 336.78912391 0.01807235
536.00000000 322.97297570 328.98587115 0.01827706
537.00000000 315.04660844 320.97498355 0.01846990
538.00000000 306.95449884 312.78818325 0.01865059
539.00000000 298.72751388 304.45708112 0.01881897
540.00000000 290.39603064 296.01285321 0.01897493
541.00000000 281.98965379 287.48594399 0.01911847
542.00000000 273.53696395 278.90580060 0.01924964
543.00000000 265.06529982 270.30064135 0.01936859
544.00000000 256.60057529 261.69726017 0.01947550
545.00000000 248.16713214 253.12086772 0.01957063
546.00000000 239.78763456 244.59496881 0.01965426
547.00000000 231.48296265 236.14127474 0.01972680
548.00000000 223.27220815 227.77964866 0.01978860
549.00000000 215.58138953 219.94197799 0.01982609
550.00000000 208.65587521 212.87830823 0.01983496
551.00000000 201.92802932 206.01504904 0.01983845
552.00000000 195.35966402 199.31332438 0.01983641
553.00000000 188.95281665 192.77539333 0.01982917
554.00000000 182.70879955 186.40275883 0.01981708
555.00000000 176.62826463 180.19623436 0.01980047
556.00000000 170.71126613 174.15600855 0.01977964
557.00000000 164.95732044 168.28170717 0.01975489
558.00000000 159.36546318 162.57245223 0.01972652
559.00000000 153.93430309 157.02691783 0.01969481
560.00000000 148.66207269 151.64338280 0.01966001
