# lambda [nm], refrac_real_water, refrac_imag_water, refrac_real_silver, refrac_imag_silver, refrac_real_gold, refrac_imag_gold
203.25278261 1.39300744e+00 1.02063210e-07 1.15000000e+00 1.29600000e+00 1.33000000e+00 1.27700000e+00
207.33143377 1.38925508e+00 9.21113016e-08 1.18000000e+00 1.31200000e+00 1.30000000e+00 1.30400000e+00
211.93879896 1.38501630e+00 8.08693305e-08 1.20000000e+00 1.32500000e+00 1.30000000e+00 1.35000000e+00
216.37730784 1.38093288e+00 7.00393689e-08 1.22000000e+00 1.33600000e+00 1.30000000e+00 1.38700000e+00
221.40035249 1.37631168e+00 5.77831399e-08 1.25000000e+00 1.34200000e+00 1.30000000e+00 1.42700000e+00
226.24853539 1.37245064e+00 4.82259081e-08 1.26000000e+00 1.34400000e+00 1.31000000e+00 1.46000000e+00
231.31380111 1.37022193e+00 4.50854433e-08 1.28000000e+00 1.35700000e+00 1.30000000e+00 1.49700000e+00
237.06347494 1.36769207e+00 4.15206455e-08 1.28000000e+00 1.36700000e+00 1.32000000e+00 1.53600000e+00
242.63052328 1.36524257e+00 3.80690756e-08 1.30000000e+00 1.37800000e+00 1.32000000e+00 1.57700000e+00
248.96425179 1.36245573e+00 3.41421639e-08 1.31000000e+00 1.38900000e+00 1.33000000e+00 1.63100000e+00
255.11151727 1.36036431e+00 3.14553931e-08 1.33000000e+00 1.39300000e+00 1.33000000e+00 1.68800000e+00
261.57003670 1.35829759e+00 2.88719853e-08 1.35000000e+00 1.38700000e+00 1.35000000e+00 1.74900000e+00
268.94619825 1.35593722e+00 2.59215207e-08 1.38000000e+00 1.37200000e+00 1.38000000e+00 1.80300000e+00
276.13406992 1.35377319e+00 2.31597790e-08 1.41000000e+00 1.33100000e+00 1.43000000e+00 1.84700000e+00
284.36742521 1.35212651e+00 2.06897724e-08 1.41000000e+00 1.26400000e+00 1.47000000e+00 1.86900000e+00
292.41555989 1.35051689e+00 1.82753320e-08 1.39000000e+00 1.16100000e+00 1.49000000e+00 1.87800000e+00
300.93251795 1.34888810e+00 1.58060363e-08 1.34000000e+00 9.64000000e-01 1.53000000e+00 1.88900000e+00
310.73733683 1.34771152e+00 1.37666339e-08 1.13000000e+00 6.16000000e-01 1.53000000e+00 1.89300000e+00
320.37260308 1.34655529e+00 1.17624986e-08 8.10000000e-01 3.92000000e-01 1.54000000e+00 1.89800000e+00
331.50854918 1.34521897e+00 9.68052954e-09 1.70000000e-01 8.29000000e-01 1.48000000e+00 1.88300000e+00
342.49778286 1.34390027e+00 7.79038135e-09 1.40000000e-01 1.14200000e+00 1.48000000e+00 1.87100000e+00
354.24056398 1.34266075e+00 5.99113232e-09 1.00000000e-01 1.41900000e+00 1.50000000e+00 1.86600000e+00
367.90563025 1.34156755e+00 4.35132437e-09 7.00000000e-02 1.65700000e+00 1.48000000e+00 1.89500000e+00
381.48983813 1.34048081e+00 3.07426662e-09 5.00000000e-02 1.86400000e+00 1.46000000e+00 1.93300000e+00
397.38524806 1.33920918e+00 2.03152773e-09 5.00000000e-02 2.07000000e+00 1.47000000e+00 1.95200000e+00
413.28065798 1.33846877e+00 1.56251326e-09 5.00000000e-02 2.27500000e+00 1.46000000e+00 1.95800000e+00
430.50068539 1.33777997e+00 1.23839232e-09 4.00000000e-02 2.46200000e+00 1.45000000e+00 1.94800000e+00
450.85162689 1.33696593e+00 1.01710447e-09 4.00000000e-02 2.65700000e+00 1.38000000e+00 1.91400000e+00
471.42280378 1.33614309e+00 9.47162467e-10 5.00000000e-02 2.86900000e+00 1.31000000e+00 1.84900000e+00
495.93678957 1.33516253e+00 9.89435653e-10 5.00000000e-02 3.09300000e+00 1.04000000e+00 1.83300000e+00
520.94200586 1.33416232e+00 1.26805767e-09 5.00000000e-02 3.32400000e+00 6.20000000e-01 2.08100000e+00
548.60264333 1.33305589e+00 1.92422767e-09 6.00000000e-02 3.58600000e+00 4.30000000e-01 2.45500000e+00
582.08543377 1.33271658e+00 5.66894666e-09 5.00000000e-02 3.85800000e+00 2.90000000e-01 2.86300000e+00
616.83680295 1.33200000e+00 1.29204164e-08 6.00000000e-02 4.15200000e+00 2.10000000e-01 3.27200000e+00
659.49041167 1.33100000e+00 1.86397372e-08 5.00000000e-02 4.48300000e+00 1.40000000e-01 3.69700000e+00
704.45566701 1.33082177e+00 4.38371475e-08 4.00000000e-02 4.83800000e+00 1.30000000e-01 4.10300000e+00
756.00120362 1.33000000e+00 1.54079615e-07 3.00000000e-02 5.24200000e+00 1.40000000e-01 4.54200000e+00
821.08739996 1.32900000e+00 1.73079272e-07 4.00000000e-02 5.72700000e+00 1.60000000e-01 5.08300000e+00
891.97264312 1.32800000e+00 4.55496044e-07 4.00000000e-02 6.31200000e+00 1.70000000e-01 5.66300000e+00
984.00156662 1.32700000e+00 3.26756303e-06 4.00000000e-02 6.99200000e+00 2.20000000e-01 6.35000000e+00
1087.58067889 1.32568629e+00 5.95532376e-06 4.00000000e-02 7.79500000e+00 2.70000000e-01 7.15000000e+00
1215.53134700 1.32376703e+00 1.98386043e-05 9.00000000e-02 8.82800000e+00 3.50000000e-01 8.14500000e+00
1393.08086959 1.32110379e+00 1.33567951e-04 1.30000000e-01 1.01000000e+01 4.30000000e-01 9.51900000e+00
1610.18438174 1.31674539e+00 8.70021963e-05 1.50000000e-01 1.18500000e+01 5.60000000e-01 1.12100000e+01
1937.25308428 1.30788241e+00 7.90971440e-04 2.40000000e-01 1.40800000e+01 9.20000000e-01 1.37800000e+01
